wavelength,relativeIntensity
380.0,0.0002
380.5,0.0002196
381.0,0.0002392
381.5,0.0002588
382.0,0.0002784
382.5,0.000298
383.0,0.0003176
383.5,0.0003372
384.0,0.0003568
384.5,0.0003764
385.0,0.000396
385.5,0.0004364
386.0,0.0004768
386.5,0.0005172
387.0,0.0005576
387.5,0.000598
388.0,0.0006384
388.5,0.0006788
389.0,0.0007192
389.5,0.0007596
390.0,0.0008
390.5,0.000875
391.0,0.00095
391.5,0.001025
392.0,0.0011
392.5,0.001175
393.0,0.00125
393.5,0.001325
394.0,0.0014
394.5,0.001475
395.0,0.00155
395.5,0.001675
396.0,0.0018
396.5,0.001925
397.0,0.00205
397.5,0.002175
398.0,0.0023
398.5,0.002425
399.0,0.00255
399.5,0.002675
400.0,0.0028
400.5,0.00298562
401.0,0.00317124
401.5,0.00335686
402.0,0.00354248
402.5,0.0037281
403.0,0.00391372
403.5,0.00409934
404.0,0.00428496
404.5,0.00447058
405.0,0.0046562
405.5,0.00493058
406.0,0.00520496
406.5,0.00547934
407.0,0.00575372
407.5,0.0060281
408.0,0.00630248
408.5,0.00657686
409.0,0.00685124
409.5,0.00712562
410.0,0.0074
410.5,0.0078379
411.0,0.0082758
411.5,0.0087137
412.0,0.0091516
412.5,0.0095895
413.0,0.0100274
413.5,0.0104653
414.0,0.0109032
414.5,0.0113411
415.0,0.011779
415.5,0.0123511
416.0,0.0129232
416.5,0.0134953
417.0,0.0140674
417.5,0.0146395
418.0,0.0152116
418.5,0.0157837
419.0,0.0163558
419.5,0.0169279
420.0,0.0175
420.5,0.0180178
421.0,0.0185356
421.5,0.0190534
422.0,0.0195712
422.5,0.020089
423.0,0.020606801
423.5,0.021124601
424.0,0.021642401
424.5,0.022160201
425.0,0.022678001
425.5,0.023140201
426.0,0.023602401
426.5,0.024064601
427.0,0.024526801
427.5,0.024989001
428.0,0.0254512
428.5,0.0259134
429.0,0.0263756
429.5,0.0268378
430.0,0.0273
430.5,0.0278284
431.0,0.0283568
431.5,0.0288852
432.0,0.0294136
432.5,0.029942
433.0,0.0304704
433.5,0.0309988
434.0,0.0315272
434.5,0.0320556
435.0,0.032584
435.5,0.0331156
436.0,0.0336472
436.5,0.034178801
437.0,0.034710401
437.5,0.035242001
438.0,0.035773601
438.5,0.036305201
439.0,0.036836801
439.5,0.037368401
440.0,0.037900001
440.5,0.038349101
441.0,0.0387982
441.5,0.0392473
442.0,0.0396964
442.5,0.0401455
443.0,0.040594599
443.5,0.041043699
444.0,0.041492799
444.5,0.041941899
445.0,0.042390998
445.5,0.042831898
446.0,0.043272799
446.5,0.043713699
447.0,0.044154599
447.5,0.044595499
448.0,0.045036399
448.5,0.045477299
449.0,0.045918199
449.5,0.046359099
450.0,0.046799999
450.5,0.047332199
451.0,0.047864399
451.5,0.048396599
452.0,0.048928799
452.5,0.049461
453.0,0.0499932
453.5,0.0505254
454.0,0.0510576
454.5,0.0515898
455.0,0.052122001
455.5,0.0529098
456.0,0.0536976
456.5,0.0544854
457.0,0.0552732
457.5,0.056061
458.0,0.056848799
458.5,0.057636599
459.0,0.058424399
459.5,0.059212199
460.0,0.059999999
460.5,0.061294199
461.0,0.0625884
461.5,0.0638826
462.0,0.065176801
462.5,0.066471001
463.0,0.067765202
463.5,0.069059402
464.0,0.070353603
464.5,0.071647803
465.0,0.072942004
465.5,0.074745803
466.0,0.076549603
466.5,0.078353403
467.0,0.080157202
467.5,0.081961002
468.0,0.083764802
468.5,0.085568602
469.0,0.087372401
469.5,0.089176201
470.0,0.090980001
470.5,0.093166
471.0,0.095352
471.5,0.097538
472.0,0.099723999
472.5,0.101909999
473.0,0.104095998
473.5,0.106281998
474.0,0.108467998
474.5,0.110653997
475.0,0.112839997
475.5,0.115457997
476.0,0.118075997
476.5,0.120693997
477.0,0.123311996
477.5,0.125929996
478.0,0.128547996
478.5,0.131165996
479.0,0.133783996
479.5,0.136401996
480.0,0.139019996
480.5,0.142104997
481.0,0.145189998
481.5,0.148274998
482.0,0.151359999
482.5,0.154445
483.0,0.157530001
483.5,0.160615002
484.0,0.163700002
484.5,0.166785003
485.0,0.169870004
485.5,0.173685004
486.0,0.177500004
486.5,0.181315003
487.0,0.185130003
487.5,0.188945003
488.0,0.192760003
488.5,0.196575002
489.0,0.200390002
489.5,0.204205002
490.0,0.208020002
490.5,0.213026002
491.0,0.218032002
491.5,0.223038003
492.0,0.228044003
492.5,0.233050004
493.0,0.238056004
493.5,0.243062004
494.0,0.248068005
494.5,0.253074005
495.0,0.258080006
495.5,0.264572006
496.0,0.271064007
496.5,0.277556008
497.0,0.284048009
497.5,0.29054001
498.0,0.297032011
498.5,0.303524011
499.0,0.310016012
499.5,0.316508013
500.0,0.323000014
500.5,0.331240013
501.0,0.339480013
501.5,0.347720012
502.0,0.355960011
502.5,0.364200011
503.0,0.37244001
503.5,0.38068001
504.0,0.388920009
504.5,0.397160009
505.0,0.405400008
505.5,0.415160009
506.0,0.424920011
506.5,0.434680012
507.0,0.444440013
507.5,0.454200014
508.0,0.463960016
508.5,0.473720017
509.0,0.483480018
509.5,0.49324002
510.0,0.503000021
510.5,0.51351102
511.0,0.524022019
511.5,0.534533018
512.0,0.545044017
512.5,0.555555016
513.0,0.566066015
513.5,0.576577014
514.0,0.587088013
514.5,0.597599012
515.0,0.608110011
515.5,0.618299007
516.0,0.628488004
516.5,0.638677001
517.0,0.648865998
517.5,0.659054995
518.0,0.669243991
518.5,0.679432988
519.0,0.689621985
519.5,0.699810982
520.0,0.709999979
520.5,0.718509978
521.0,0.727019978
521.5,0.735529977
522.0,0.744039977
522.5,0.752549976
523.0,0.761059976
523.5,0.769569975
524.0,0.778079975
524.5,0.786589974
525.0,0.795099974
525.5,0.801789975
526.0,0.808479977
526.5,0.815169978
527.0,0.82185998
527.5,0.828549981
528.0,0.835239983
528.5,0.841929984
529.0,0.848619986
529.5,0.855309987
530.0,0.861999989
530.5,0.867304993
531.0,0.872609997
531.5,0.877915001
532.0,0.883220005
532.5,0.888525009
533.0,0.893830013
533.5,0.899135017
534.0,0.904440022
534.5,0.909745026
535.0,0.91505003
535.5,0.918945026
536.0,0.922840023
536.5,0.92673502
537.0,0.930630016
537.5,0.934525013
538.0,0.93842001
538.5,0.942315006
539.0,0.946210003
539.5,0.950105
540.0,0.953999996
540.5,0.956603998
541.0,0.959208
541.5,0.961812001
542.0,0.964416003
542.5,0.967020005
543.0,0.969624007
543.5,0.972228009
544.0,0.97483201
544.5,0.977436012
545.0,0.980040014
545.5,0.981531012
546.0,0.98302201
546.5,0.984513009
547.0,0.986004007
547.5,0.987495005
548.0,0.988986003
548.5,0.990477002
549.0,0.991968
549.5,0.993458998
550.0,0.994949996
550.5,0.995464998
551.0,0.99598
551.5,0.996495003
552.0,0.997010005
552.5,0.997525007
553.0,0.998040009
553.5,0.998555011
554.0,0.999070013
554.5,0.999585015
555.0,1.000100017
555.5,0.999590015
556.0,0.999080014
556.5,0.998570013
557.0,0.998060012
557.5,0.997550011
558.0,0.997040009
558.5,0.996530008
559.0,0.996020007
559.5,0.995510006
560.0,0.995000005
560.5,0.993375003
561.0,0.991750002
561.5,0.990125
562.0,0.988499999
562.5,0.986874998
563.0,0.985249996
563.5,0.983624995
564.0,0.981999993
564.5,0.980374992
565.0,0.97874999
565.5,0.976074994
566.0,0.973399997
566.5,0.970725
567.0,0.968050003
567.5,0.965375006
568.0,0.962700009
568.5,0.960025012
569.0,0.957350016
569.5,0.954675019
570.0,0.952000022
570.5,0.948358017
571.0,0.944716012
571.5,0.941074008
572.0,0.937432003
572.5,0.933789998
573.0,0.930147994
573.5,0.926505989
574.0,0.922863984
574.5,0.919221979
575.0,0.915579975
575.5,0.911021978
576.0,0.906463981
576.5,0.901905984
577.0,0.897347987
577.5,0.89278999
578.0,0.888231993
578.5,0.883673996
579.0,0.879115999
579.5,0.874558002
580.0,0.870000005
580.5,0.864623004
581.0,0.859246004
581.5,0.853869003
582.0,0.848492002
582.5,0.843115002
583.0,0.837738001
583.5,0.832361001
584.0,0.826984
584.5,0.821607
585.0,0.816229999
585.5,0.810307002
586.0,0.804384005
586.5,0.798461008
587.0,0.792538011
587.5,0.786615014
588.0,0.780692017
588.5,0.77476902
589.0,0.768846023
589.5,0.762923026
590.0,0.757000029
590.5,0.750783026
591.0,0.744566023
591.5,0.73834902
592.0,0.732132018
592.5,0.725915015
593.0,0.719698012
593.5,0.713481009
594.0,0.707264006
594.5,0.701047003
595.0,0.69483
595.5,0.688446999
596.0,0.682063997
596.5,0.675680995
597.0,0.669297993
597.5,0.662914991
598.0,0.65653199
598.5,0.650148988
599.0,0.643765986
599.5,0.637382984
600.0,0.630999982
600.5,0.624553984
601.0,0.618107986
601.5,0.611661988
602.0,0.605215991
602.5,0.598769993
603.0,0.592323995
603.5,0.585877997
604.0,0.579431999
604.5,0.572986001
605.0,0.566540003
605.5,0.560186005
606.0,0.553832006
606.5,0.547478008
607.0,0.54112401
607.5,0.534770012
608.0,0.528416014
608.5,0.522062016
609.0,0.515708017
609.5,0.509354019
610.0,0.503000021
610.5,0.49687202
611.0,0.490744019
611.5,0.484616017
612.0,0.478488016
612.5,0.472360015
613.0,0.466232014
613.5,0.460104012
614.0,0.453976011
614.5,0.44784801
615.0,0.441720009
615.5,0.435648009
616.0,0.42957601
616.5,0.42350401
617.0,0.41743201
617.5,0.411360011
618.0,0.405288011
618.5,0.399216011
619.0,0.393144011
619.5,0.387072012
620.0,0.381000012
620.5,0.374952012
621.0,0.368904012
621.5,0.362856013
622.0,0.356808013
622.5,0.350760013
623.0,0.344712013
623.5,0.338664013
624.0,0.332616013
624.5,0.326568013
625.0,0.320520014
625.5,0.314968011
626.0,0.309416008
626.5,0.303864005
627.0,0.298312002
627.5,0.29276
628.0,0.287207997
628.5,0.281655994
629.0,0.276103991
629.5,0.270551988
630.0,0.264999986
630.5,0.260201988
631.0,0.25540399
631.5,0.250605991
632.0,0.245807993
632.5,0.241009995
633.0,0.236211997
633.5,0.231413999
634.0,0.226616001
634.5,0.221818003
635.0,0.217020005
635.5,0.212818004
636.0,0.208616003
636.5,0.204414003
637.0,0.200212002
637.5,0.196010001
638.0,0.191808
638.5,0.187605999
639.0,0.183403999
639.5,0.179201998
640.0,0.174999997
640.5,0.171311997
641.0,0.167623997
641.5,0.163935997
642.0,0.160247996
642.5,0.156559996
643.0,0.152871996
643.5,0.149183996
644.0,0.145495996
644.5,0.141807996
645.0,0.138119996
645.5,0.135007996
646.0,0.131895997
646.5,0.128783997
647.0,0.125671998
647.5,0.122559998
648.0,0.119447999
648.5,0.116335999
649.0,0.113224
649.5,0.110112
650.0,0.107000001
650.5,0.104465201
651.0,0.101930401
651.5,0.099395601
652.0,0.096860801
652.5,0.094326001
653.0,0.091791201
653.5,0.089256401
654.0,0.086721601
654.5,0.084186801
655.0,0.081652001
655.5,0.079586801
656.0,0.077521601
656.5,0.075456401
657.0,0.073391201
657.5,0.071326001
658.0,0.069260801
658.5,0.067195601
659.0,0.065130401
659.5,0.063065201
660.0,0.061000001
660.5,0.0593327
661.0,0.0576654
661.5,0.0559981
662.0,0.0543308
662.5,0.052663499
663.0,0.050996199
663.5,0.049328899
664.0,0.047661599
664.5,0.045994299
665.0,0.044326998
665.5,0.043094299
666.0,0.041861599
666.5,0.040628899
667.0,0.0393962
667.5,0.0381635
668.0,0.0369308
668.5,0.035698101
669.0,0.034465401
669.5,0.033232701
670.0,0.032000002
670.5,0.031145401
671.0,0.030290801
671.5,0.029436201
672.0,0.028581601
672.5,0.027727
673.0,0.0268724
673.5,0.0260178
674.0,0.0251632
674.5,0.0243086
675.0,0.023453999
675.5,0.022808599
676.0,0.0221632
676.5,0.0215178
677.0,0.0208724
677.5,0.020227
678.0,0.0195816
678.5,0.0189362
679.0,0.018290801
679.5,0.017645401
680.0,0.017000001
680.5,0.016487201
681.0,0.015974401
681.5,0.015461601
682.0,0.014948801
682.5,0.014436
683.0,0.0139232
683.5,0.0134104
684.0,0.0128976
684.5,0.0123848
685.0,0.011872
685.5,0.0115058
686.0,0.0111396
686.5,0.0107734
687.0,0.0104072
687.5,0.010041
688.0,0.0096748
688.5,0.0093086
689.0,0.0089424
689.5,0.0085762
690.0,0.00821
690.5,0.00796623
691.0,0.00772246
691.5,0.00747869
692.0,0.00723492
692.5,0.00699115
693.0,0.00674738
693.5,0.00650361
694.0,0.00625984
694.5,0.00601607
695.0,0.0057723
695.5,0.00560527
696.0,0.00543824
696.5,0.00527121
697.0,0.00510418
697.5,0.00493715
698.0,0.00477012
698.5,0.00460309
699.0,0.00443606
699.5,0.00426903
700.0,0.004102
700.5,0.0039848
701.0,0.0038676
701.5,0.0037504
702.0,0.0036332
702.5,0.003516
703.0,0.0033988
703.5,0.0032816
704.0,0.0031644
704.5,0.0030472
705.0,0.00293
705.5,0.002846
706.0,0.002762
706.5,0.002678
707.0,0.002594
707.5,0.00251
708.0,0.002426
708.5,0.002342
709.0,0.002258
709.5,0.002174
710.0,0.00209
710.5,0.002029
711.0,0.001968
711.5,0.001907
712.0,0.001846
712.5,0.001785
713.0,0.001724
713.5,0.001663
714.0,0.001602
714.5,0.001541
715.0,0.00148
715.5,0.001437
716.0,0.001394
716.5,0.001351
717.0,0.001308
717.5,0.001265
718.0,0.001222
718.5,0.001179
719.0,0.001136
719.5,0.001093
720.0,0.00105
720.5,0.001019
721.0,0.000988
721.5,0.000957
722.0,0.000926
722.5,0.000895
723.0,0.000864
723.5,0.000833
724.0,0.000802
724.5,0.000771
725.0,0.00074
725.5,0.000718
726.0,0.000696
726.5,0.000674
727.0,0.000652
727.5,0.00063
728.0,0.000608
728.5,0.000586
729.0,0.000564
729.5,0.000542